Enu[GeV] vmu vmubar ve vebar vtau vtaubar [1e-38cm^2/GeV]
0.025 2.41251e-06 0 0.00259301 0.00197173 0 0
0.075 1.04542e-05 0 0.0112342 0.00833163 0 0
0.125 0.00953239 0.00448501 0.0283922 0.0165084 0 0
0.175 0.041445 0.0195254 0.065594 0.0289612 0 0
0.225 0.0787554 0.0340735 0.106072 0.0413661 0 0
0.275 0.128879 0.047453 0.154326 0.0536576 0 0
0.325 0.177028 0.0605433 0.203248 0.0663614 0 0
0.375 0.220447 0.0729411 0.253768 0.0800524 0 0
0.425 0.266536 0.0861613 0.305745 0.0943781 0 0
0.475 0.319075 0.101368 0.361239 0.110236 0 0
0.525 0.373578 0.117114 0.417116 0.126406 0 0
0.575 0.432866 0.134173 0.473926 0.143335 0 0
0.625 0.491145 0.151353 0.529816 0.160463 0 0
0.675 0.546947 0.168829 0.583443 0.178081 0 0
0.725 0.601233 0.18647 0.635757 0.195926 0 0
0.775 0.651764 0.204518 0.684811 0.214336 0 0
0.825 0.70111 0.22286 0.732912 0.233005 0 0
0.875 0.747493 0.241941 0.778628 0.252321 0 0
0.925 0.793062 0.261321 0.82375 0.271842 0 0
0.975 0.836578 0.281458 0.867372 0.291877 0 0
1.025 0.87961 0.301742 0.910615 0.312038 0 0
1.075 0.921408 0.322402 0.952894 0.332522 0 0
1.125 0.962945 0.343112 0.994837 0.353084 0 0
1.175 1.00381 0.363956 1.03591 0.373849 0 0
1.225 1.04434 0.384798 1.07651 0.394631 0 0
1.275 1.08399 0.405639 1.11587 0.41546 0 0
1.325 1.12319 0.426426 1.15471 0.436258 0 0
1.375 1.16121 0.447072 1.19223 0.456971 0 0
1.425 1.19879 0.467648 1.22926 0.477618 0 0
1.475 1.23519 0.488043 1.26502 0.498088 0 0
1.525 1.27127 0.508371 1.30039 0.51847 0 0
1.575 1.30648 0.528519 1.33478 0.538619 0 0
1.625 1.34135 0.548574 1.36893 0.55867 0 0
1.675 1.37531 0.568378 1.40243 0.578462 0 0
1.725 1.4091 0.588092 1.43588 0.598166 0 0
1.775 1.44241 0.607562 1.4692 0.617632 0 0
1.825 1.47551 0.626915 1.50251 0.637008 0 0
1.875 1.50807 0.645951 1.53582 0.656138 0 0
1.925 1.5405 0.664885 1.569 0.675162 0 0
1.975 1.57254 0.683539 1.6018 0.69389 0 0
2.025 1.60464 0.702154 1.63451 0.712542 4.05033e-10 4.05033e-10
2.075 1.63689 0.720661 1.66694 0.730982 1.93946e-09 1.93946e-09
2.125 1.6691 0.739092 1.69935 0.749389 4.37077e-09 4.37077e-09
2.175 1.70118 0.757312 1.73171 0.7677 9.32629e-09 9.32629e-09
2.225 1.73324 0.775485 1.76394 0.785958 1.42818e-08 1.42818e-08
2.275 1.76525 0.793525 1.7958 0.804062 1.92373e-08 1.92373e-08
2.325 1.79731 0.811551 1.8277 0.822117 2.41929e-08 2.41929e-08
2.375 1.82947 0.829538 1.85967 0.840025 2.91484e-08 2.91484e-08
2.425 1.86158 0.847471 1.89161 0.857916 3.97591e-08 3.97591e-08
2.475 1.89352 0.865244 1.92348 0.875755 6.67402e-08 6.67402e-08
2.525 1.92552 0.882976 1.95536 0.893587 9.94118e-08 9.94118e-08
2.575 1.9577 0.900591 1.98728 0.911399 1.48713e-07 1.48713e-07
2.625 1.99004 0.918201 2.01923 0.929193 1.99661e-07 1.99661e-07
2.675 2.0229 0.935796 2.05124 0.946932 2.55469e-07 2.55469e-07
2.725 2.05574 0.953355 2.08337 0.964624 3.10568e-07 3.10568e-07
2.775 2.08853 0.970802 2.11587 0.982176 3.63555e-07 3.63555e-07
2.825 2.12123 0.988193 2.14841 0.99966 4.13669e-07 4.13669e-07
2.875 2.15371 1.00541 2.18106 1.01694 4.5514e-07 4.5514e-07
2.925 2.18615 1.02261 2.21369 1.03415 4.96198e-07 4.96198e-07
2.975 2.2185 1.03973 2.24625 1.05115 5.36005e-07 5.36005e-07
3.025 2.25105 1.05684 2.2788 1.06809 5.83618e-07 5.83053e-07
3.075 2.2842 1.07392 2.31129 1.08485 6.55166e-07 6.52303e-07
3.125 2.31722 1.09094 2.34379 1.10158 7.44975e-07 7.36702e-07
3.175 2.34981 1.10782 2.37631 1.11823 8.91319e-07 8.68005e-07
3.225 2.38225 1.12462 2.40884 1.13489 1.06036e-06 1.02201e-06
3.275 2.41423 1.1412 2.4414 1.15159 1.30037e-06 1.24697e-06
3.325 2.44611 1.15774 2.47394 1.16829 1.57035e-06 1.50191e-06
3.375 2.47766 1.17413 2.50644 1.185 1.93496e-06 1.85148e-06
3.425 2.50917 1.19052 2.53887 1.20168 0.001076 0.000316399
3.475 2.54058 1.20688 2.57109 1.21826 0.00557377 0.00163282
3.525 2.57191 1.22324 2.6032 1.23479 0.0108559 0.00323814
3.575 2.60304 1.23959 2.635 1.25117 0.0186641 0.00577385
3.625 2.63411 1.25591 2.66674 1.26753 0.0264722 0.0083303
3.675 2.66501 1.27218 2.69826 1.28384 0.0342805 0.0109542
3.725 2.69588 1.28842 2.72978 1.30015 0.0420887 0.0135933
3.775 2.72662 1.30458 2.7613 1.31652 0.0498969 0.0162822
3.825 2.75734 1.32073 2.79281 1.3329 0.0580054 0.0190472
3.875 2.78802 1.3368 2.82434 1.34936 0.0671103 0.022065
3.925 2.81872 1.35286 2.85586 1.36581 0.0766674 0.0252299
3.975 2.84948 1.36887 2.88731 1.38228 0.0877404 0.0288877
4.025 2.88033 1.3849 2.91873 1.39873 0.0984463 0.0327003
4.075 2.9115 1.401 2.95001 1.41513 0.107909 0.0370371
4.125 2.94283 1.41717 2.98125 1.4315 0.117216 0.0414404
4.175 2.97469 1.43356 3.01235 1.44779 0.125994 0.0460715
4.225 3.00672 1.45004 3.04343 1.46406 0.134748 0.0507791
4.275 3.03931 1.46681 3.07442 1.48023 0.143421 0.0557519
4.325 3.07201 1.48363 3.10542 1.49638 0.152111 0.0608038
4.375 3.10507 1.50062 3.13643 1.51245 0.160858 0.0661319
4.425 3.13818 1.51761 3.16747 1.5285 0.169748 0.0715887
4.475 3.1714 1.53461 3.19857 1.5445 0.179147 0.0774996
4.525 3.20461 1.55158 3.22972 1.56051 0.188707 0.0835466
4.575 3.23777 1.56846 3.26104 1.57656 0.198838 0.0900789
4.625 3.27094 1.58533 3.29245 1.59263 0.209077 0.0967002
4.675 3.30413 1.60218 3.32414 1.60882 0.219703 0.103642
4.725 3.33735 1.61904 3.35591 1.62506 0.230441 0.110662
4.775 3.37068 1.63596 3.38798 1.64143 0.241581 0.117965
4.825 3.40404 1.65291 3.42012 1.65783 0.252814 0.125333
4.875 3.4375 1.66997 3.45246 1.6743 0.264386 0.13294
4.925 3.47097 1.68703 3.48482 1.69078 0.276034 0.1406
4.975 3.50442 1.70409 3.51729 1.70726 0.287962 0.148458
5.025 3.53782 1.72112 3.54975 1.72373 0.299949 0.156358
5.075 3.57104 1.73801 3.58222 1.74015 0.312161 0.164419
5.125 3.60418 1.75481 3.61468 1.75654 0.324414 0.172515
5.175 3.63697 1.77133 3.64713 1.77286 0.336825 0.180747
5.225 3.66965 1.78776 3.67957 1.78916 0.349264 0.189013
5.275 3.70195 1.80389 3.712 1.80538 0.361811 0.197413
5.325 3.73417 1.81997 3.74443 1.82158 0.374377 0.205842
5.375 3.7661 1.83585 3.77687 1.83771 0.387013 0.214382
5.425 3.79797 1.85172 3.80931 1.85381 0.399667 0.222942
5.475 3.82963 1.86751 3.84175 1.86982 0.412388 0.231582
5.525 3.86127 1.8833 3.87419 1.88583 0.42513 0.24024
5.575 3.89278 1.89912 3.90664 1.90179 0.437956 0.248969
5.625 3.92426 1.91494 3.93909 1.91776 0.450807 0.257717
5.675 3.95564 1.93076 3.97153 1.93375 0.463761 0.266538
5.725 3.98699 1.94656 4.00397 1.94975 0.476744 0.275376
5.775 4.01822 1.96228 4.0364 1.96583 0.489844 0.284287
5.825 4.04942 1.97797 4.06882 1.98195 0.502974 0.293213
5.875 4.08049 1.99353 4.10124 1.99821 0.516223 0.302202
5.925 4.11153 2.00905 4.13364 2.01449 0.5295 0.311201
5.975 4.14246 2.02441 4.16599 2.03087 0.542893 0.320243
6.025 4.17338 2.03975 4.19833 2.04726 0.556306 0.329286
6.075 4.20423 2.055 4.23061 2.06368 0.569809 0.338332
6.125 4.23509 2.07026 4.26287 2.0801 0.583329 0.347373
6.175 4.26596 2.08555 4.29505 2.09647 0.596921 0.356391
6.225 4.29685 2.10086 4.32721 2.11282 0.610529 0.365408
6.275 4.32782 2.11629 4.35928 2.12903 0.624213 0.374414
6.325 4.35881 2.13177 4.39132 2.14521 0.637914 0.383421
6.375 4.38995 2.14743 4.42326 2.16124 0.651696 0.392436
6.425 4.42111 2.16313 4.45518 2.17725 0.665494 0.401453
6.475 4.45241 2.17898 4.48703 2.19315 0.679364 0.410477
6.525 4.48374 2.19485 4.51886 2.20905 0.693244 0.419499
6.575 4.51519 2.21077 4.55063 2.22489 0.707168 0.428514
6.625 4.54666 2.22669 4.58238 2.24074 0.721094 0.437524
6.675 4.5782 2.24259 4.6141 2.2566 0.73503 0.446511
6.725 4.60975 2.25847 4.6458 2.27247 0.748962 0.455491
6.775 4.64133 2.27424 4.67749 2.28842 0.762877 0.464442
6.825 4.67291 2.28998 4.70917 2.30438 0.776791 0.473388
6.875 4.70452 2.3056 4.74083 2.32042 0.790694 0.482315
6.925 4.73615 2.32122 4.7725 2.33646 0.804602 0.491241
6.975 4.76783 2.33679 4.80417 2.35254 0.818526 0.50016
7.025 4.79952 2.35237 4.83583 2.36862 0.832461 0.50908
7.075 4.83131 2.36796 4.86751 2.3847 0.84644 0.518005
7.125 4.86311 2.38357 4.89918 2.40077 0.86043 0.52693
7.175 4.89504 2.39925 4.93087 2.41679 0.87447 0.535861
7.225 4.92699 2.41496 4.96257 2.4328 0.888519 0.544791
7.275 4.95908 2.4308 4.99428 2.44871 0.902614 0.553723
7.325 4.99119 2.44666 5.026 2.4646 0.916717 0.562655
7.375 5.02342 2.46263 5.05775 2.48039 0.930862 0.571586
7.425 5.05567 2.47861 5.08952 2.49617 0.945016 0.580517
7.475 5.08798 2.49463 5.12132 2.5119 0.959214 0.589446
7.525 5.1203 2.51065 5.15314 2.52763 0.973421 0.598374
7.575 5.15265 2.52667 5.18503 2.54334 0.987679 0.607301
7.625 5.18499 2.54267 5.21693 2.55905 1.00195 0.616226
7.675 5.21731 2.55861 5.24891 2.5748 1.01627 0.625146
7.725 5.24962 2.57454 5.28091 2.59055 1.03061 0.634066
7.775 5.28187 2.59036 5.313 2.6064 1.04502 0.642982
7.825 5.31411 2.60617 5.34511 2.62226 1.05943 0.6519
7.875 5.34629 2.62189 5.37732 2.63825 1.07393 0.660828
7.925 5.37847 2.6376 5.40955 2.65426 1.08845 0.669762
7.975 5.41061 2.65328 5.44187 2.67038 1.10307 0.678724
8.025 5.44276 2.66897 5.47421 2.6865 1.1177 0.687695
8.075 5.47491 2.68469 5.50661 2.70269 1.13244 0.696711
8.125 5.50706 2.70042 5.53902 2.71889 1.1472 0.705737
8.175 5.53924 2.71622 5.57149 2.73512 1.16208 0.714814
8.225 5.57143 2.73205 5.60396 2.75134 1.17698 0.723897
8.275 5.60368 2.74801 5.63647 2.76757 1.19199 0.73302
8.325 5.63595 2.764 5.66898 2.78378 1.20705 0.742146
8.375 5.66831 2.78014 5.7015 2.79994 1.22237 0.751295
8.425 5.70068 2.79631 5.73403 2.81609 1.23769 0.760445
8.475 5.73312 2.8126 5.76655 2.83215 1.2531 0.769601
8.525 5.76556 2.8289 5.79907 2.84819 1.26853 0.77876
8.575 5.79803 2.84527 5.8316 2.86417 1.28404 0.787931
8.625 5.83051 2.86164 5.86413 2.88013 1.29956 0.797107
8.675 5.86299 2.87802 5.89668 2.89603 1.31517 0.806313
8.725 5.89546 2.89439 5.92923 2.91192 1.33079 0.815526
8.775 5.92791 2.91072 5.96179 2.92776 1.3465 0.824785
8.825 5.96035 2.92703 5.99437 2.94361 1.36223 0.834053
8.875 5.99272 2.94323 6.02696 2.95942 1.37805 0.843378
8.925 6.02509 2.95942 6.05957 2.97522 1.39388 0.85271
8.975 6.05739 2.97548 6.0922 2.99102 1.4098 0.862086
9.025 6.08969 2.99152 6.12485 3.00682 1.42574 0.871466
9.075 6.12193 3.00747 6.15753 3.02264 1.44185 0.880868
9.125 6.15418 3.02339 6.19023 3.03846 1.45798 0.890268
9.175 6.1864 3.03924 6.22297 3.05431 1.4742 0.899665
9.225 6.21861 3.05507 6.25572 3.07017 1.49043 0.909059
9.275 6.25083 3.07085 6.28851 3.08606 1.5067 0.918426
9.325 6.28305 3.08662 6.32132 3.10196 1.52297 0.92779
9.375 6.3153 3.10237 6.35417 3.11792 1.53925 0.937133
9.425 6.34755 3.11813 6.38702 3.13389 1.55554 0.946477
9.475 6.37985 3.13392 6.41992 3.14994 1.57187 0.955825
9.525 6.41216 3.14971 6.45283 3.166 1.58819 0.965177
9.575 6.44454 3.16555 6.48578 3.18215 1.60457 0.974556
9.625 6.47692 3.18139 6.51874 3.19831 1.62095 0.983942
9.675 6.50938 3.19728 6.55175 3.21456 1.63738 0.993376
9.725 6.54185 3.21318 6.58475 3.23083 1.65382 1.00282
9.775 6.57439 3.22915 6.61781 3.2472 1.67031 1.01231
9.825 6.60694 3.24513 6.65087 3.26358 1.68681 1.02181
9.875 6.63957 3.26119 6.68397 3.28004 1.70335 1.03134
9.925 6.67221 3.27726 6.71707 3.29651 1.7199 1.04087
9.975 6.70493 3.29341 6.7502 3.31305 1.73648 1.0504
10.025 6.73766 3.30958 6.78334 3.32959 1.75307 1.05993
10.075 6.77047 3.32584 6.81651 3.34618 1.7697 1.06945
10.125 6.8033 3.34211 6.84969 3.36278 1.78632 1.07896
10.175 6.83619 3.35848 6.8829 3.37941 1.80295 1.08843
10.225 6.8691 3.37486 6.91612 3.39603 1.81958 1.0979
10.275 6.90207 3.39132 6.94935 3.41267 1.83623 1.10734
10.325 6.93505 3.40779 6.98259 3.4293 1.85288 1.11678
10.375 6.9681 3.42433 7.01584 3.44591 1.86955 1.12621
10.425 7.00116 3.44089 7.0491 3.46251 1.88622 1.13564
10.475 7.03429 3.4575 7.08237 3.47909 1.90292 1.14508
10.525 7.06741 3.47411 7.11565 3.49566 1.91963 1.15453
10.575 7.10056 3.49073 7.14895 3.5122 1.93636 1.164
10.625 7.13371 3.50735 7.18225 3.52875 1.9531 1.17347
10.675 7.16689 3.52397 7.21556 3.54528 1.9699 1.18301
10.725 7.20007 3.54059 7.24886 3.5618 1.98673 1.19255
10.775 7.23328 3.5572 7.28216 3.57832 2.0038 1.20214
10.825 7.26649 3.5738 7.31547 3.59484 2.02088 1.21173
10.875 7.29969 3.59036 7.34877 3.61138 2.03801 1.22133
10.925 7.3329 3.60692 7.38208 3.62793 2.05516 1.23094
10.975 7.3661 3.62342 7.41541 3.64452 2.07236 1.24055
11.025 7.39931 3.63992 7.44873 3.66112 2.08957 1.25015
11.075 7.43253 3.6564 7.48205 3.67776 2.10681 1.25972
11.125 7.46575 3.67287 7.51537 3.69441 2.12405 1.26927
11.175 7.49898 3.68934 7.54867 3.71112 2.14135 1.2788
11.225 7.53222 3.70582 7.58196 3.72784 2.15866 1.28832
11.275 7.5655 3.72231 7.61525 3.74463 2.17603 1.29782
11.325 7.59877 3.7388 7.64853 3.76144 2.1934 1.30732
11.375 7.63209 3.75534 7.6818 3.77831 2.21085 1.31683
11.425 7.66541 3.77188 7.71507 3.79519 2.22831 1.32634
11.475 7.69878 3.78849 7.74833 3.81213 2.24584 1.33587
11.525 7.73216 3.8051 7.78159 3.82908 2.26338 1.3454
11.575 7.76561 3.8218 7.81484 3.84606 2.28101 1.35497
11.625 7.79906 3.83851 7.84808 3.86304 2.29865 1.36455
11.675 7.83258 3.85531 7.8813 3.88003 2.31637 1.37419
11.725 7.86611 3.87212 7.91451 3.89701 2.33412 1.38383
11.775 7.89968 3.889 7.94769 3.91398 2.35196 1.39355
11.825 7.93326 3.90589 7.98086 3.93093 2.36982 1.40327
11.875 7.96687 3.92285 8.014 3.94785 2.38779 1.41306
11.925 8.00049 3.9398 8.04713 3.96477 2.40577 1.42285
11.975 8.03414 3.95679 8.08023 3.98163 2.42395 1.4327
12.025 8.06778 3.97377 8.11333 3.99848 2.44213 1.44257
12.075 8.10142 3.99075 8.14638 4.01524 2.46047 1.4525
12.125 8.13505 4.00773 8.17942 4.03199 2.47882 1.46243
12.175 8.16864 4.02466 8.21241 4.04863 2.49728 1.47242
12.225 8.20222 4.04159 8.24539 4.06526 2.51576 1.48242
12.275 8.23573 4.05844 8.27832 4.0818 2.53435 1.49247
12.325 8.26924 4.07527 8.31125 4.09833 2.55294 1.50252
12.375 8.30265 4.09201 8.34412 4.11476 2.57165 1.51263
12.425 8.33605 4.10874 8.37698 4.13119 2.59036 1.52274
12.475 8.36934 4.12535 8.40978 4.14752 2.60917 1.5329
12.525 8.40262 4.14195 8.44258 4.16384 2.62799 1.54307
12.575 8.43578 4.15841 8.47531 4.18007 2.64692 1.5533
12.625 8.46893 4.17487 8.50803 4.1963 2.66586 1.56353
12.675 8.50196 4.1912 8.5407 4.21245 2.68487 1.57378
12.725 8.53498 4.20753 8.57336 4.2286 2.70389 1.58404
12.775 8.56788 4.22375 8.60597 4.24469 2.72299 1.59432
12.825 8.60077 4.23997 8.63858 4.26078 2.74211 1.60461
12.875 8.63354 4.25609 8.67114 4.27682 2.76129 1.6149
12.925 8.66631 4.2722 8.7037 4.29286 2.78048 1.62519
12.975 8.69898 4.28823 8.7362 4.30885 2.79975 1.63549
13.025 8.73163 4.30426 8.7687 4.32483 2.81902 1.64579
13.075 8.76421 4.32024 8.80114 4.34078 2.83834 1.65606
13.125 8.79678 4.33621 8.83358 4.35672 2.85767 1.66633
13.175 8.82928 4.35215 8.86598 4.37264 2.87706 1.67659
13.225 8.86178 4.36809 8.89837 4.38856 2.89646 1.68685
13.275 8.89421 4.38401 8.93074 4.40447 2.91591 1.6971
13.325 8.92665 4.39992 8.9631 4.42037 2.93537 1.70734
13.375 8.95903 4.41584 8.99544 4.43627 2.95488 1.71756
13.425 8.99142 4.43175 9.02777 4.45217 2.9744 1.72778
13.475 9.02376 4.44766 9.06007 4.46807 2.99397 1.738
13.525 9.05611 4.46358 9.09238 4.48396 3.01355 1.74822
13.575 9.08841 4.47948 9.12464 4.49985 3.03319 1.75846
13.625 9.12071 4.49538 9.1569 4.51574 3.05284 1.76871
13.675 9.15298 4.51127 9.18914 4.53162 3.07255 1.77899
13.725 9.18525 4.52716 9.22136 4.54751 3.09227 1.78928
13.775 9.21749 4.54303 9.25357 4.5634 3.11206 1.79963
13.825 9.24973 4.5589 9.28577 4.57929 3.13186 1.80999
13.875 9.28195 4.57475 9.31796 4.5952 3.15174 1.82043
13.925 9.31417 4.5906 9.35015 4.61112 3.17163 1.83088
13.975 9.34639 4.60644 9.38233 4.62706 3.19159 1.84142
14.025 9.37861 4.62228 9.41451 4.64301 3.21156 1.85196
14.075 9.41084 4.6381 9.44667 4.65898 3.23162 1.86261
14.125 9.44307 4.65392 9.47884 4.67495 3.25169 1.87326
14.175 9.47532 4.66973 9.51099 4.69094 3.27182 1.88397
14.225 9.50757 4.68554 9.54314 4.70693 3.29196 1.89469
14.275 9.53985 4.70133 9.57527 4.72293 3.31216 1.90544
14.325 9.57213 4.71712 9.6074 4.73893 3.33237 1.9162
14.375 9.60444 4.73289 9.63954 4.75495 3.35262 1.92696
14.425 9.63674 4.74866 9.67168 4.77097 3.37287 1.93772
14.475 9.66906 4.76441 9.70383 4.787 3.39316 1.94846
14.525 9.70138 4.78017 9.73597 4.80304 3.41344 1.95919
14.575 9.73372 4.79591 9.76812 4.81907 3.43376 1.96988
14.625 9.76605 4.81166 9.80027 4.83511 3.45407 1.98056
14.675 9.7984 4.82742 9.83242 4.85113 3.47441 1.99117
14.725 9.83074 4.84317 9.86457 4.86716 3.49474 2.00178
14.775 9.8631 4.85894 9.89674 4.88317 3.5151 2.01235
14.825 9.89546 4.87471 9.9289 4.89919 3.53546 2.02291
14.875 9.9278 4.89049 9.96109 4.9152 3.55585 2.03344
14.925 9.96014 4.90628 9.99327 4.93121 3.57625 2.04398
14.975 9.99247 4.92208 10.0255 4.9472 3.59669 2.05451
15.025 10.0248 4.93789 10.0577 4.9632 3.61713 2.06505
15.075 10.0571 4.95373 10.0899 4.97917 3.63764 2.07562
15.125 10.0894 4.96957 10.1222 4.99515 3.65815 2.0862
15.175 10.1217 4.98545 10.1544 5.0111 3.67872 2.09682
15.225 10.154 5.00134 10.1867 5.02706 3.6993 2.10745
15.275 10.1862 5.01727 10.219 5.043 3.71993 2.11814
15.325 10.2185 5.0332 10.2513 5.05894 3.74057 2.12883
15.375 10.2507 5.04918 10.2836 5.07488 3.7613 2.13961
15.425 10.2829 5.06516 10.316 5.09081 3.78202 2.1504
15.475 10.3151 5.08118 10.3483 5.10675 3.80283 2.16127
15.525 10.3472 5.09721 10.3807 5.12269 3.82365 2.17214
15.575 10.3794 5.11328 10.4131 5.13863 3.84451 2.18305
15.625 10.4116 5.12935 10.4455 5.15458 3.86538 2.19397
15.675 10.4437 5.14547 10.4779 5.17053 3.88632 2.20492
15.725 10.4759 5.16159 10.5103 5.18648 3.90725 2.21587
15.775 10.508 5.17775 10.5428 5.20245 3.92824 2.22685
15.825 10.5402 5.19392 10.5752 5.21842 3.94923 2.23782
15.875 10.5724 5.21012 10.6077 5.23442 3.97026 2.24878
15.925 10.6046 5.22632 10.6402 5.25042 3.99128 2.25974
15.975 10.6368 5.24257 10.6727 5.26645 4.01234 2.27068
16.025 10.669 5.25881 10.7052 5.28249 4.0334 2.28161
16.075 10.7012 5.27509 10.7377 5.29856 4.0545 2.29252
16.125 10.7335 5.29137 10.7703 5.31463 4.07561 2.30343
16.175 10.7658 5.30769 10.8029 5.33073 4.09674 2.31432
16.225 10.7981 5.32401 10.8354 5.34684 4.11788 2.32521
16.275 10.8304 5.34035 10.868 5.36299 4.13905 2.33609
16.325 10.8628 5.3567 10.9006 5.37913 4.16022 2.34697
16.375 10.8952 5.37306 10.9332 5.39532 4.18145 2.35787
16.425 10.9276 5.38942 10.9658 5.41151 4.20267 2.36877
16.475 10.9601 5.40579 10.9984 5.42774 4.22397 2.37972
16.525 10.9925 5.42216 11.031 5.44397 4.24526 2.39067
16.575 11.025 5.43853 11.0637 5.46024 4.26662 2.40167
16.625 11.0575 5.4549 11.0964 5.4765 4.28798 2.41267
16.675 11.0901 5.47128 11.129 5.49281 4.30941 2.42374
16.725 11.1226 5.48765 11.1617 5.50911 4.33083 2.43481
16.775 11.1552 5.50404 11.1944 5.52544 4.35234 2.44597
16.825 11.1878 5.52043 11.2271 5.54178 4.37385 2.45713
16.875 11.2204 5.53683 11.2598 5.55814 4.39544 2.46838
16.925 11.253 5.55324 11.2925 5.57449 4.41703 2.47964
16.975 11.2857 5.56965 11.3253 5.59087 4.43869 2.49095
17.025 11.3183 5.58607 11.358 5.60725 4.46035 2.50227
17.075 11.351 5.6025 11.3908 5.62365 4.48207 2.51363
17.125 11.3838 5.61892 11.4235 5.64004 4.50378 2.52499
17.175 11.4165 5.63536 11.4563 5.65646 4.52555 2.53637
17.225 11.4492 5.65179 11.489 5.67287 4.54731 2.54775
17.275 11.4819 5.66822 11.5218 5.6893 4.56912 2.55913
17.325 11.5147 5.68466 11.5546 5.70572 4.59092 2.57051
17.375 11.5474 5.7011 11.5874 5.72216 4.61275 2.58186
17.425 11.5802 5.71754 11.6202 5.73859 4.63457 2.59322
17.475 11.613 5.734 11.653 5.75504 4.65641 2.60452
17.525 11.6457 5.75046 11.6858 5.77148 4.67824 2.61582
17.575 11.6786 5.76694 11.7186 5.78794 4.7001 2.62707
17.625 11.7114 5.78341 11.7514 5.8044 4.72196 2.63832
17.675 11.7442 5.79989 11.7842 5.82088 4.74382 2.64951
17.725 11.777 5.81637 11.8171 5.83735 4.76567 2.66068
17.775 11.8098 5.83285 11.8499 5.85383 4.78754 2.67181
17.825 11.8426 5.84933 11.8828 5.87032 4.80941 2.68293
17.875 11.8755 5.86583 11.9156 5.88682 4.8313 2.69401
17.925 11.9083 5.88232 11.9485 5.90331 4.8532 2.7051
17.975 11.9411 5.89886 11.9813 5.91983 4.87511 2.71614
18.025 11.974 5.91539 12.0142 5.93634 4.89702 2.72718
18.075 12.0069 5.93197 12.0471 5.95289 4.91895 2.7382
18.125 12.0397 5.94854 12.0799 5.96943 4.94089 2.74921
18.175 12.0726 5.96515 12.1128 5.98602 4.96286 2.76021
18.225 12.1055 5.98176 12.1457 6.0026 4.98483 2.7712
18.275 12.1384 5.99839 12.1786 6.01922 5.00682 2.78219
18.325 12.1713 6.01502 12.2114 6.03584 5.02882 2.79317
